   0.0000   2452980
   0.0050   2895920
   0.0100   3235630
   0.0150   3327650
   0.0200   3203360
   0.0250   2880050
   0.0300   2406190
   0.0350   1853790
   0.0400   1387800
   0.0450   1094360
   0.0500    950978
   0.0550    888545
   0.0600    854243
   0.0650    847860
   0.0700    861250
   0.0750    879428
   0.0800    916677
   0.0850    951879
   0.0900    992177
   0.0950   1029740
   0.1000   1068760
   0.1050   1105820
   0.1100   1135140
   0.1150   1171900
   0.1200   1205590
   0.1250   1242730
   0.1300   1284330
   0.1350   1313290
   0.1400   1350760
   0.1450   1379960
   0.1500   1406600
   0.1550   1441990
   0.1600   1462070
   0.1650   1470500
   0.1700   1502230
   0.1750   1526590
   0.1800   1556690
   0.1850   1562780
   0.1900   1572190
   0.1950   1578730
   0.2000   1567090
   0.2050   1524740
   0.2100   1452210
   0.2150   1352810
   0.2200   1236370
   0.2250   1090250
   0.2300    944643
   0.2350    792481
   0.2400    692184
   0.2450    564129
   0.2500    431684
   0.2550    318868
   0.2600    239054
   0.2650    188444
   0.2700    158779
   0.2750    141090
   0.2800    127858
   0.2850    113534
   0.2900     97296
   0.2950     83133
   0.3000     71220
   0.3050     62956
   0.3100     58293
   0.3150     55564
   0.3200     53105
   0.3250     49877
   0.3300     45409
   0.3350     40145
   0.3400     35509
   0.3450     31692
   0.3500     29687
   0.3550     28804
   0.3600     28031
   0.3650     27568
   0.3700     26123
   0.3750     23885
   0.3800     21497
   0.3850     19012
   0.3900     17229
   0.3950     16303
   0.4000     16063
   0.4050     15895
   0.4100     16019
   0.4150     15568
   0.4200     14612
   0.4250     13234
   0.4300     11792
   0.4350     10760
   0.4400      9654
   0.4450      9541
   0.4500      9489
   0.4550     10020
   0.4600      9992
   0.4650      9384
   0.4700      9027
   0.4750      7867
   0.4800      7005
   0.4850      6222
   0.4900      6105
   0.4950      6010
   0.5000      6024
   0.5050      6261
   0.5100      6290
   0.5150      5988
   0.5200      5774
   0.5250      5334
   0.5300      4635
   0.5350      4158
   0.5400      3923
   0.5450      3763
   0.5500      3982
   0.5550      4166
   0.5600      4199
   0.5650      3993
   0.5700      3898
   0.5750      3595
   0.5800      3081
   0.5850      2835
   0.5900      2682
   0.5950      2550
   0.6000      2631
   0.6050      2795
   0.6100      2795
   0.6150      2816
   0.6200      2684
   0.6250      2480
   0.6300      2231
   0.6350      1954
   0.6400      1772
   0.6450      1636
   0.6500      1813
   0.6550      1922
   0.6600      2047
   0.6650      2036
   0.6700      1934
   0.6750      1814
   0.6800      1651
   0.6850      1357
   0.6900      1280
   0.6950      1128
   0.7000      1214
   0.7050      1273
   0.7100      1405
   0.7150      1460
   0.7200      1329
   0.7250      1346
   0.7300      1305
   0.7350      1039
   0.7400       970
   0.7450       860
   0.7500       898
   0.7550       903
   0.7600       965
   0.7650       923
   0.7700       977
   0.7750       943
   0.7800       914
   0.7850       815
   0.7900       662
   0.7950       659
   0.8000       598
   0.8050       611
   0.8100       630
   0.8150       681
   0.8200       721
   0.8250       719
   0.8300       634
   0.8350       599
   0.8400       546
   0.8450       464
   0.8500       445
   0.8550       417
   0.8600       437
   0.8650       497
   0.8700       509
   0.8750       468
   0.8800       460
   0.8850       465
   0.8900       426
   0.8950       399
   0.9000       362
   0.9050       305
   0.9100       315
   0.9150       365
   0.9200       341
   0.9250       338
   0.9300       370
   0.9350       334
   0.9400       317
   0.9450       326
   0.9500       287
   0.9550       247
   0.9600       220
   0.9650       264
   0.9700       258
   0.9750       289
   0.9800       290
   0.9850       288
   0.9900       240
   0.9950       267
   1.0000       198
   1.0050       216
   1.0100       186
   1.0150       195
   1.0200       193
   1.0250       184
   1.0300       227
   1.0350       211
   1.0400       192
   1.0450       174
   1.0500       167
   1.0550       162
   1.0600       133
   1.0650       129
   1.0700       135
   1.0750       145
   1.0800       138
   1.0850       152
   1.0900       145
   1.0950       139
   1.1000       134
   1.1050       123
   1.1100       125
   1.1150        99
   1.1200       105
   1.1250       113
   1.1300       115
   1.1350        91
   1.1400       109
   1.1450       110
   1.1500       108
   1.1550        81
   1.1600        81
   1.1650        86
   1.1700        95
   1.1750        95
   1.1800        90
   1.1850        83
   1.1900        92
   1.1950        81
   1.2000        97
   1.2050        87
   1.2100        85
   1.2150        65
   1.2200        75
   1.2250        85
   1.2300        66
   1.2350        53
   1.2400        77
   1.2450        58
   1.2500        51
   1.2550        40
   1.2600        67
   1.2650        54
   1.2700        52
   1.2750        51
   1.2800        36
   1.2850        47
   1.2900        51
   1.2950        51
   1.3000        45
   1.3050        56
   1.3100        50
   1.3150        47
   1.3200        37
   1.3250        37
   1.3300        45
   1.3350        42
   1.3400        38
   1.3450        44
   1.3500        43
   1.3550        53
   1.3600        45
   1.3650        31
   1.3700        26
   1.3750        26
   1.3800        32
   1.3850        25
   1.3900        26
   1.3950        29
   1.4000        42
   1.4050        31
   1.4100        31
   1.4150        30
   1.4200        16
   1.4250        29
   1.4300        29
   1.4350        25
   1.4400        29
   1.4450        28
   1.4500        29
   1.4550        28
   1.4600        20
   1.4650        21
   1.4700        23
   1.4750        19
   1.4800        23
   1.4850        21
   1.4900        16
   1.4950        10
   1.5000        16
   1.5050        22
   1.5100        23
   1.5150        14
   1.5200        15
   1.5250        11
   1.5300        20
   1.5350        15
   1.5400        14
   1.5450         6
   1.5500        11
   1.5550        11
   1.5600        16
   1.5650        11
   1.5700        16
   1.5750        21
   1.5800        10
   1.5850         8
   1.5900        17
   1.5950        12
   1.6000        13
   1.6050        14
   1.6100        10
   1.6150        14
   1.6200         9
   1.6250        11
   1.6300         6
   1.6350        11
   1.6400        12
   1.6450        10
   1.6500         6
   1.6550        10
   1.6600         7
   1.6650        12
   1.6700        10
   1.6750         7
   1.6800        13
   1.6850        10
   1.6900         5
   1.6950         7
   1.7000         6
   1.7050        11
   1.7100        11
   1.7150         9
   1.7200         5
   1.7250         5
   1.7300         9
   1.7350         9
   1.7400        12
   1.7450         9
   1.7500         4
   1.7550         5
   1.7600         2
   1.7650         3
   1.7700         2
   1.7750         6
   1.7800         3
   1.7850         7
   1.7900         4
   1.7950         4
   1.8000         6
   1.8050         6
   1.8100         4
   1.8150         2
   1.8200         4
   1.8250         5
   1.8300         5
   1.8350         2
   1.8400         0
   1.8450         6
   1.8500         1
   1.8550         3
   1.8600         1
   1.8650         7
   1.8700         3
   1.8750         2
   1.8800         3
   1.8850         2
   1.8900         4
   1.8950         1
   1.9000         2
   1.9050         6
   1.9100         3
   1.9150         4
   1.9200         0
   1.9250         1
   1.9300         2
   1.9350         2
   1.9400         4
   1.9450         1
   1.9500         5
   1.9550         5
   1.9600         2
   1.9650         2
   1.9700         2
   1.9750         4
   1.9800         4
   1.9850         6
   1.9900         4
   1.9950         2
   2.0000         3
   2.0050         0
   2.0100         4
   2.0150         5
   2.0200         4
   2.0250         4
   2.0300         3
   2.0350         6
   2.0400         4
   2.0450         1
   2.0500         2
   2.0550         2
   2.0600         2
   2.0650         1
   2.0700         0
   2.0750         1
   2.0800         4
   2.0850         2
   2.0900         4
   2.0950         2
   2.1000         1
   2.1050         5
   2.1100         1
   2.1150         1
   2.1200         1
   2.1250         3
   2.1300         2
   2.1350         0
   2.1400         1
   2.1450         0
   2.1500         3
   2.1550         1
   2.1600         0
   2.1650         1
   2.1700         1
   2.1750         2
   2.1800         2
   2.1850         2
   2.1900         3
   2.1950         0
   2.2000         2
   2.2050         2
   2.2100         1
   2.2150         1
   2.2200         0
   2.2250         2
   2.2300         1
   2.2350         0
   2.2400         3
   2.2450         2
   2.2500         0
   2.2550         0
   2.2600         1
   2.2650         2
   2.2700         1
   2.2750         1
   2.2800         0
   2.2850         1
   2.2900         0
   2.2950         2
   2.3000         1
   2.3050         0
   2.3100         0
   2.3150         1
   2.3200         0
   2.3250         3
   2.3300         2
   2.3350         0
   2.3400         1
   2.3450         3
   2.3500         0
   2.3550         1
   2.3600         0
   2.3650         0
   2.3700         1
   2.3750         0
   2.3800         0
   2.3850         1
   2.3900         1
   2.3950         2
   2.4000         1
   2.4050         1
   2.4100         0
   2.4150         1
   2.4200         0
   2.4250         2
   2.4300         1
   2.4350         1
   2.4400         1
   2.4450         0
   2.4500         2
   2.4550         2
   2.4600         2
   2.4650         0
   2.4700         0
   2.4750         0
   2.4800         0
   2.4850         0
   2.4900         0
   2.4950         1
   2.5000         1
