   0.0000    463212
   0.0050    368849
   0.0100    292965
   0.0150    240540
   0.0200    206395
   0.0250    183337
   0.0300    168319
   0.0350    159833
   0.0400    149575
   0.0450    141789
   0.0500    130311
   0.0550    121143
   0.0600    111849
   0.0650    101456
   0.0700     97447
   0.0750     95080
   0.0800     90651
   0.0850     89723
   0.0900     88408
   0.0950     85688
   0.1000     82430
   0.1050     79719
   0.1100     76712
   0.1150     71866
   0.1200     64780
   0.1250     58830
   0.1300     54605
   0.1350     51113
   0.1400     45420
   0.1450     39465
   0.1500     33534
   0.1550     29279
   0.1600     26438
   0.1650     24209
   0.1700     22182
   0.1750     20297
   0.1800     18685
   0.1850     17031
   0.1900     15419
   0.1950     13978
   0.2000     12379
   0.2050     10872
   0.2100      9412
   0.2150      8044
   0.2200      6710
   0.2250      5594
   0.2300      4308
   0.2350      3703
   0.2400      2902
   0.2450      2355
   0.2500      1854
   0.2550      1602
   0.2600      1336
   0.2650      1127
   0.2700       937
   0.2750       872
   0.2800       817
   0.2850       670
   0.2900       580
   0.2950       573
   0.3000       540
   0.3050       466
   0.3100       454
   0.3150       409
   0.3200       387
   0.3250       355
   0.3300       305
   0.3350       334
   0.3400       307
   0.3450       285
   0.3500       280
   0.3550       263
   0.3600       257
   0.3650       239
   0.3700       211
   0.3750       190
   0.3800       207
   0.3850       188
   0.3900       152
   0.3950       193
   0.4000       150
   0.4050       176
   0.4100       163
   0.4150       136
   0.4200       155
   0.4250       132
   0.4300       126
   0.4350       140
   0.4400       129
   0.4450       126
   0.4500       136
   0.4550       124
   0.4600       106
   0.4650       124
   0.4700       117
   0.4750       103
   0.4800        83
   0.4850       100
   0.4900        99
   0.4950       100
   0.5000        92
   0.5050        85
   0.5100        92
   0.5150        88
   0.5200        81
   0.5250        88
   0.5300        78
   0.5350        84
   0.5400        70
   0.5450        72
   0.5500        82
   0.5550        71
   0.5600        73
   0.5650        61
   0.5700        67
   0.5750        69
   0.5800        44
   0.5850        64
   0.5900        51
   0.5950        55
   0.6000        60
   0.6050        56
   0.6100        64
   0.6150        59
   0.6200        57
   0.6250        50
   0.6300        36
   0.6350        40
   0.6400        38
   0.6450        65
   0.6500        47
   0.6550        40
   0.6600        52
   0.6650        59
   0.6700        51
   0.6750        41
   0.6800        51
   0.6850        43
   0.6900        48
   0.6950        50
   0.7000        41
   0.7050        54
   0.7100        38
   0.7150        43
   0.7200        36
   0.7250        40
   0.7300        39
   0.7350        42
   0.7400        36
   0.7450        44
   0.7500        30
   0.7550        35
   0.7600        31
   0.7650        35
   0.7700        32
   0.7750        27
   0.7800        27
   0.7850        25
   0.7900        18
   0.7950        17
   0.8000        18
   0.8050        20
   0.8100        21
   0.8150        28
   0.8200        21
   0.8250        19
   0.8300        20
   0.8350        24
   0.8400        17
   0.8450        17
   0.8500        15
   0.8550        16
   0.8600        13
   0.8650        18
   0.8700        11
   0.8750        17
   0.8800        28
   0.8850        16
   0.8900        17
   0.8950        14
   0.9000        14
   0.9050        12
   0.9100        20
   0.9150        19
   0.9200        12
   0.9250        20
   0.9300        10
   0.9350        16
   0.9400        13
   0.9450        13
   0.9500        15
   0.9550         8
   0.9600        13
   0.9650        12
   0.9700        10
   0.9750        14
   0.9800        14
   0.9850        10
   0.9900        17
   0.9950         8
   1.0000        16
   1.0050         6
   1.0100        10
   1.0150         7
   1.0200         8
   1.0250        13
   1.0300        10
   1.0350        11
   1.0400        12
   1.0450         7
   1.0500        13
   1.0550         5
   1.0600        12
   1.0650        10
   1.0700         9
   1.0750         9
   1.0800         9
   1.0850         6
   1.0900         5
   1.0950         9
   1.1000         7
   1.1050        13
   1.1100         6
   1.1150         8
   1.1200         8
   1.1250         5
   1.1300         7
   1.1350         6
   1.1400         6
   1.1450         9
   1.1500         0
   1.1550         4
   1.1600         7
   1.1650         5
   1.1700         5
   1.1750         8
   1.1800         1
   1.1850         8
   1.1900         5
   1.1950         7
   1.2000         5
   1.2050         4
   1.2100         7
   1.2150         8
   1.2200         3
   1.2250         2
   1.2300         2
   1.2350         4
   1.2400         5
   1.2450         4
   1.2500         5
   1.2550         4
   1.2600         2
   1.2650         3
   1.2700         4
   1.2750         3
   1.2800         6
   1.2850         4
   1.2900         3
   1.2950         3
   1.3000         3
   1.3050         2
   1.3100         3
   1.3150         1
   1.3200         6
   1.3250         2
   1.3300         5
   1.3350         4
   1.3400         5
   1.3450         5
   1.3500         5
   1.3550         1
   1.3600         2
   1.3650         4
   1.3700         1
   1.3750         5
   1.3800         4
   1.3850         3
   1.3900         3
   1.3950         3
   1.4000         0
   1.4050         4
   1.4100         0
   1.4150         1
   1.4200         1
   1.4250         1
   1.4300         3
   1.4350         2
   1.4400         1
   1.4450         1
   1.4500         4
   1.4550         3
   1.4600         4
   1.4650         3
   1.4700         0
   1.4750         2
   1.4800         1
   1.4850         1
   1.4900         2
   1.4950         0
   1.5000         3
   1.5050         2
   1.5100         1
   1.5150         2
   1.5200         0
   1.5250         1
   1.5300         3
   1.5350         4
   1.5400         2
   1.5450         2
   1.5500         2
   1.5550         1
   1.5600         0
   1.5650         5
   1.5700         4
   1.5750         3
   1.5800         2
   1.5850         1
   1.5900         2
   1.5950         1
   1.6000         2
   1.6050         1
   1.6100         0
   1.6150         0
   1.6200         1
   1.6250         1
   1.6300         1
   1.6350         1
   1.6400         3
   1.6450         0
   1.6500         2
   1.6550         2
   1.6600         1
   1.6650         1
   1.6700         0
   1.6750         0
   1.6800         3
   1.6850         0
   1.6900         2
   1.6950         1
   1.7000         1
   1.7050         0
   1.7100         1
   1.7150         2
   1.7200         2
   1.7250         5
   1.7300         0
   1.7350         2
   1.7400         0
   1.7450         1
   1.7500         3
   1.7550         1
   1.7600         0
   1.7650         1
   1.7700         0
   1.7750         1
   1.7800         0
   1.7850         0
   1.7900         0
   1.7950         0
   1.8000         0
   1.8050         1
   1.8100         2
   1.8150         1
   1.8200         0
   1.8250         2
   1.8300         1
   1.8350         0
   1.8400         0
   1.8450         0
   1.8500         0
   1.8550         2
   1.8600         0
   1.8650         1
   1.8700         0
   1.8750         0
   1.8800         2
   1.8850         3
   1.8900         1
   1.8950         0
   1.9000         1
   1.9050         0
   1.9100         0
   1.9150         0
   1.9200         0
   1.9250         1
   1.9300         1
   1.9350         0
   1.9400         2
   1.9450         1
   1.9500         0
   1.9550         0
   1.9600         1
   1.9650         0
   1.9700         0
   1.9750         0
   1.9800         0
   1.9850         0
   1.9900         0
   1.9950         0
   2.0000         0
   2.0050         0
   2.0100         0
   2.0150         0
   2.0200         0
   2.0250         3
   2.0300         0
   2.0350         0
   2.0400         0
   2.0450         0
   2.0500         1
   2.0550         0
   2.0600         0
   2.0650         0
   2.0700         2
   2.0750         0
   2.0800         0
   2.0850         1
   2.0900         1
   2.0950         0
   2.1000         0
   2.1050         0
   2.1100         0
   2.1150         0
   2.1200         0
   2.1250         0
   2.1300         0
   2.1350         0
   2.1400         0
   2.1450         1
   2.1500         0
   2.1550         0
   2.1600         0
   2.1650         1
   2.1700         1
   2.1750         0
   2.1800         0
   2.1850         1
   2.1900         0
   2.1950         0
   2.2000         0
   2.2050         0
   2.2100         0
   2.2150         0
   2.2200         0
   2.2250         0
   2.2300         0
   2.2350         1
   2.2400         0
   2.2450         0
   2.2500         0
   2.2550         0
   2.2600         0
   2.2650         0
   2.2700         1
   2.2750         1
   2.2800         0
   2.2850         0
   2.2900         0
   2.2950         0
   2.3000         0
   2.3050         0
   2.3100         0
   2.3150         0
   2.3200         0
   2.3250         0
   2.3300         0
   2.3350         0
   2.3400         1
   2.3450         0
   2.3500         1
   2.3550         0
   2.3600         0
   2.3650         0
   2.3700         0
   2.3750         0
   2.3800         0
   2.3850         1
   2.3900         0
   2.3950         1
   2.4000         0
   2.4050         0
   2.4100         1
   2.4150         1
   2.4200         0
   2.4250         0
   2.4300         0
   2.4350         1
   2.4400         0
   2.4450         2
   2.4500         0
   2.4550         0
   2.4600         0
   2.4650         0
   2.4700         0
   2.4750         0
   2.4800         0
   2.4850         0
   2.4900         0
   2.4950         1
   2.5000         0
